"Photon energy, eV","n","k"
0.825834007464237,2.243487,0.019418
0.827713905729411,2.243672,0.019437
0.8296021112944338,2.243857,0.019456
0.8314986787303146,2.244044,0.019475
0.8334035964226741,2.244232,0.019493
0.8353169865188901,2.244421,0.019511
0.8372389073047184,2.244612,0.019528
0.8391694147624178,2.244804,0.019545
0.8411085670760916,2.244997,0.019562
0.8430564223837316,2.245192,0.019578
0.8450131798697718,2.245387,0.019594
0.8469787589294131,2.245584,0.01961
0.8489532198724452,2.245783,0.019625
0.8509367654769625,2.245983,0.019639
0.8529293148151035,2.246185,0.019653
0.8549310742900097,2.246387,0.019667
0.856942034447715,2.246592,0.01968
0.8589622594277196,2.246798,0.019693
0.8609918133693825,2.247005,0.019705
0.8630309075859474,2.247214,0.019717
0.8650793879811188,2.247425,0.019729
0.8671375420235292,2.247637,0.019739
0.8692053646615828,2.247851,0.01975
0.8712828482469547,2.248067,0.01976
0.8733702113349894,2.248284,0.019769
0.8754674491450185,2.248503,0.019778
0.8775747070587074,2.248724,0.019786
0.8796919821553186,2.248946,0.019794
0.881819344761719,2.249171,0.019801
0.8839570221599651,2.249397,0.019808
0.8861049337614029,2.249625,0.019814
0.8882633097701045,2.249855,0.019819
0.8904320695299801,2.250087,0.019824
0.8926114455810769,2.250321,0.019828
0.8948013584951184,2.250557,0.019832
0.8970021223765643,2.250795,0.019835
0.8992136589418492,2.251036,0.019837
0.9014361274370339,2.251278,0.019839
0.9036696091200064,2.251523,0.01984
0.9059141860559825,2.251769,0.019841
0.9081699417927829,2.252018,0.019841
0.9104369587134625,2.25227,0.01984
0.9127153220280605,2.252523,0.019838
0.9150051995167114,2.252779,0.019836
0.9173066786799132,2.253038,0.019833
0.9196197646903767,2.253299,0.019829
0.9219446292116638,2.253562,0.019825
0.9242812790618914,2.253828,0.019819
0.9266300561684371,2.254097,0.019813
0.9289908017753926,2.254368,0.019807
0.9313636915533562,2.254642,0.019799
0.9337489066474962,2.254919,0.019791
0.9361464563784251,2.255198,0.019781
0.9385565233475626,2.255481,0.019771
0.9409792058185739,2.255766,0.019761
0.9434146030863536,2.256055,0.019749
0.9458627274567188,2.256346,0.019737
0.9483237681697165,2.25664,0.019723
0.950798004148219,2.256938,0.019709
0.9532852749266164,2.257239,0.019694
0.9557858628217192,2.257543,0.019678
0.9582998750287903,2.25785,0.019661
0.960827329055186,2.258161,0.019643
0.9633684250466606,2.258476,0.019624
0.9659231811462939,2.258793,0.019604
0.9684918923726464,2.259115,0.019583
0.971074673301993,2.25944,0.019561
0.9736714531954869,2.259769,0.019538
0.9762825344997383,2.260102,0.019514
0.9789080348312716,2.260438,0.019489
0.9815479790755329,2.260779,0.019464
0.9842026773382491,2.261124,0.019436
0.9868719668087126,2.261472,0.019408
0.9895563527259643,2.261826,0.019379
0.9922555758092099,2.262183,0.019349
0.9949701498379951,2.262545,0.019317
0.9977000092531556,2.262911,0.019285
1.0004452834394137,2.263282,0.019251
1.0032062022775265,2.263658,0.019216
1.0059829005648757,2.264038,0.01918
1.008775413696311,2.264424,0.019143
1.01158417750947,2.264814,0.019105
1.014409031898544,2.265209,0.019065
1.0172501146055817,2.26561,0.019024
1.0201078738182154,2.266016,0.018982
1.0229822497352756,2.266427,0.018939
1.0258733884184443,2.266844,0.018894
1.0287816433754213,2.267267,0.018848
1.0317068551422175,2.267695,0.018801
1.034649591120214,2.26813,0.018752
1.0376095868699178,2.26857,0.018703
1.0405874207917325,2.269017,0.018651
1.0435829318860579,2.26947,0.018599
1.0465964934483407,2.269929,0.018545
1.0496282697297852,2.270396,0.01849
1.0526783170461578,2.270868,0.018433
1.0557469087292026,2.271348,0.018375
1.0588342168443345,2.271835,0.018316
1.06194041104144,2.272329,0.018255
1.0650656648584553,2.27283,0.018193
1.0682102671676195,2.27334,0.018129
1.0713742839469445,2.273857,0.018064
1.0745578961817206,2.274381,0.017998
1.077761400474167,2.274914,0.01793
1.0809848665834931,2.275455,0.01786
1.0842287155636543,2.276005,0.01779
1.0874929062022385,2.276564,0.017718
1.0907778652446833,2.277131,0.017644
1.094083790056779,2.277708,0.017569
1.0974106454497528,2.278294,0.017492
1.1007587487679704,2.278889,0.017414
1.104128544714779,2.279494,0.017335
1.1075200027596819,2.28011,0.017254
1.1109334524843715,2.280735,0.017172
1.1143689867702373,2.281372,0.017089
1.1178270661275151,2.282018,0.017004
1.121307787814391,2.282676,0.016918
1.1248114999222436,2.283346,0.01683
1.1283383040147335,2.284027,0.016741
1.131888429626532,2.28472,0.016651
1.135462235167802,2.285425,0.01656
1.139059957675822,2.286143,0.016467
1.142681836309457,2.286874,0.016373
1.1463279862446074,2.287617,0.016278
1.1499990410483896,2.288375,0.016182
1.153694864996072,2.289146,0.016084
1.1574158387060245,2.289932,0.015986
1.1611624854960827,2.290732,0.015887
1.1649348027996858,2.291547,0.015787
1.168733056841431,2.292377,0.015685
1.1725576483903508,2.293223,0.015584
1.1764089887634943,2.294086,0.015481
1.180287083237716,2.294965,0.015378
1.1841924890701065,2.295861,0.015274
1.1881253535468683,2.296775,0.01517
1.192085967531678,2.297707,0.015065
1.1960747656259059,2.298657,0.01496
1.2000920486661728,2.299626,0.014855
1.2041381206172865,2.300615,0.01475
1.2082131485000354,2.301624,0.014645
1.2123176614580562,2.302654,0.014541
1.2164520498788711,2.303704,0.014436
1.2206163478192742,2.304777,0.014333
1.2248112479070439,2.305872,0.01423
1.2411919287214028,2.310292,0.013846
1.243145039989333,2.310834,0.013802
1.2451045390094604,2.311382,0.013759
1.247070147307099,2.311935,0.013716
1.2490422017793368,2.312494,0.013673
1.2510206571476916,2.313058,0.013631
1.2530055446088613,2.313627,0.01359
1.254996974323515,2.314202,0.013549
1.2569946651503103,2.314782,0.013509
1.2589990391434238,2.315369,0.013469
1.261009814318037,2.31596,0.013429
1.2630273379024024,2.316558,0.013391
1.265051326322028,2.317162,0.013353
1.2670820502603766,2.317771,0.013315
1.2691193835657408,2.318387,0.013279
1.2711633585531983,2.319009,0.013243
1.2732141672619501,2.319636,0.013208
1.275271602623325,2.320271,0.013174
1.2773360218507757,2.320911,0.01314
1.2794071343899445,2.321558,0.013108
1.2814852973546582,2.322212,0.013076
1.2835702224948249,2.322872,0.013045
1.2856620241932963,2.323538,0.013016
1.287760901038614,2.324212,0.012987
1.2898668044035146,2.324893,0.012959
1.291979688834312,2.32558,0.012933
1.294099672842546,2.326274,0.012908
1.2962267082312782,2.326976,0.012883
1.298360911813703,2.327685,0.012861
1.3005024058078065,2.328401,0.012839
1.3026510592462193,2.329125,0.012819
1.3048068229504686,2.329856,0.0128
1.306970071194866,2.330595,0.012783
1.3091405042794726,2.331342,0.012767
1.3113184964659141,2.332096,0.012752
1.31350366281348,2.332858,0.01274
1.3156963794931973,2.333629,0.012728
1.3178965161559637,2.334407,0.012719
1.3201041934516042,2.335194,0.012711
1.322319365576518,2.33599,0.012706
1.3245422433903107,2.336793,0.012702
1.3267726953295162,2.337606,0.0127
1.3290108442175075,2.338427,0.0127
1.3312565584153062,2.339257,0.012702
1.333510135945914,2.340096,0.012706
1.335771533228036,2.340945,0.012712
1.3380407014834803,2.341802,0.012721
1.3403176793828975,2.342669,0.012732
1.3426025989021442,2.343546,0.012746
1.344895589171853,2.344432,0.012762
1.3471964250980328,2.345328,0.01278
1.349505415819447,2.346233,0.012802
1.3518222450845698,2.347149,0.012826
1.354147403963525,2.348076,0.012852
1.3564806657848298,2.349012,0.012882
1.3588221638164666,2.349959,0.012915
1.3611717609046232,2.350917,0.012951
1.3635297705628369,2.351886,0.01299
1.3658960559288786,2.352865,0.013032
1.3682707542609902,2.353857,0.013078
1.3706538150219167,2.354859,0.013127
1.3730453782516767,2.355873,0.013179
1.3754453003041294,2.356898,0.013236
1.3778540017609344,2.357936,0.013296
1.380271152792652,2.358985,0.013359
1.3826969891477288,2.360047,0.013427
1.3851314617586774,2.361122,0.013499
1.3875748062764242,2.362209,0.013576
1.390026786049451,2.363309,0.013656
1.3924876377358377,2.364422,0.013741
1.3949573138137952,2.365549,0.013831
1.3974359579069549,2.366689,0.013925
1.399923522508335,2.367843,0.014024
1.4024201526211162,2.369011,0.014128
1.4049258978698187,2.370193,0.014237
1.4074407107824087,2.37139,0.014351
1.4099647400755322,2.372602,0.014471
1.4124979351043956,2.373829,0.014596
1.4150403491108228,2.375071,0.014727
1.4175921281348376,2.376329,0.014863
1.4201532263922716,2.377603,0.015006
1.4227238958297803,2.378893,0.015154
1.4253037887137072,2.3802,0.015309
1.427893354372859,2.381525,0.01547
1.4304924492013695,2.382866,0.015638
1.433101124232285,2.384225,0.015813
1.4357196353563861,2.385602,0.015994
1.4383477328962102,2.386998,0.016183
1.440985570078039,2.388413,0.016378
1.4436334095731054,2.389847,0.016582
1.446290997896757,2.391301,0.016792
1.4489587005638218,2.392776,0.017011
1.4516363646182555,2.394271,0.017238
1.4543239435987756,2.395787,0.017472
1.457021806018101,2.397326,0.017715
1.459729591613581,2.398888,0.017967
1.4624478830849388,2.400472,0.018227
1.4651764212735439,2.402081,0.018497
1.4679151599444165,2.403714,0.018776
1.4706643709740108,2.405373,0.019064
1.4734240042045728,2.407058,0.019361
1.4761942297371173,2.40877,0.019669
1.47897510688398,2.41051,0.019986
1.4817665873765826,2.412279,0.020314
1.4845686270912684,2.414079,0.020652
1.4873817196499481,2.41591,0.021001
1.4902053823941317,2.417773,0.021361
1.4930400076254426,2.419671,0.021732
1.4958856574778616,2.421604,0.022115
1.4987420648255818,2.423574,0.022509
1.5016098454645157,2.425584,0.022915
1.5044886219015323,2.427635,0.023333
1.507378569290466,2.429729,0.023764
1.5102798649958178,2.431869,0.024207
1.5131925778140718,2.434057,0.024663
1.5161165453537184,2.436297,0.025132
1.5190520618935606,2.438592,0.025615
1.5219991959664434,2.440947,0.02611
1.5249577896961313,2.443365,0.02662
1.527928136006907,2.445852,0.027144
1.5309101935116594,2.448415,0.027681
1.5339041435658731,2.45106,0.028234
1.5369098288083538,2.453797,0.0288
1.5399275478883652,2.456638,0.029381
1.5429572599033468,2.459595,0.029977
1.5459990326260817,2.462691,0.030588
1.5490529420814263,2.465956,0.031213
1.5521192961551697,2.469462,0.031884
1.555197814017886,2.473204,0.032697
1.5582886857030422,2.477154,0.033679
1.5613919896483095,2.481303,0.034853
1.564507919457609,2.485646,0.036248
1.5676364314051674,2.490176,0.037894
1.5707776018482347,2.494883,0.039824
1.5739316296439478,2.499754,0.042075
1.5770983491234312,2.504771,0.044687
1.5802780847928815,2.509908,0.047702
1.5834707896320348,2.515131,0.051164
1.5866765451725564,2.520396,0.055117
1.58989555595716,2.525647,0.059601
1.5931277815146418,2.530818,0.064653
1.5963731738873106,2.535826,0.070301
1.5996320675450446,2.540579,0.076563
1.6029045489573408,2.544971,0.083437
1.6061903183060715,2.548889,0.090901
1.609489970660743,2.552217,0.098909
1.6128033339811652,2.554842,0.107384
1.6161304981105828,2.556664,0.116223
1.6194714161793957,2.557601,0.125295
1.6228265666100485,2.557602,0.134448
1.6261956480116975,2.55665,0.143515
1.6295788779808014,2.554768,0.152328
1.6329763436726035,2.552018,0.160726
1.636388271184468,2.548496,0.168569
1.6398146185538343,2.544327,0.175745
1.6432554773807495,2.539654,0.182174
1.6467109400427418,2.534625,0.187815
1.6501810997030877,2.529388,0.192658
1.6536660503191838,2.524078,0.196726
1.657165886651026,2.518816,0.200064
1.6606808399560509,2.513699,0.202735
1.6642108720939666,2.508806,0.204811
1.6677559456941653,2.504196,0.206372
1.6713162900232472,2.499907,0.207495
1.674892144237625,2.495962,0.208256
1.6784836098747875,2.492372,0.208726
1.6820903740203874,2.489137,0.208967
1.685712949464306,2.486249,0.209035
1.6893513022632096,2.483694,0.20898
1.693005538018056,2.481455,0.208842
1.6966757563080068,2.479512,0.208657
1.700362066873035,2.477845,0.208454
1.704064571089149,2.476432,0.208258
1.7077835240863843,2.475253,0.208087
1.711518745083782,2.474286,0.207959
1.7152706281919838,2.473513,0.207884
1.719038853713334,2.472915,0.207874
1.722824110379229,2.472476,0.207936
1.726626073808545,2.472178,0.208076
1.7304451470890347,2.472008,0.208297
1.7342811548379764,2.471951,0.208603
1.738134356142859,2.471994,0.208995
1.7420050161516645,2.472128,0.209476
1.7458929538200747,2.47234,0.210045
1.7497985863710959,2.472621,0.210701
1.75372173221333,2.472963,0.211446
1.7576626614056383,2.473356,0.212277
1.7616214951299334,2.473794,0.213194
1.7655985090441382,2.47427,0.214195
1.7695933664324375,2.474776,0.215279
1.7736068092468162,2.475308,0.216444
1.7776384958948863,2.475859,0.217688
1.7816887097969762,2.476424,0.219011
1.7857575789486457,2.477,0.220409
1.789845235111022,2.47758,0.221882
1.793951803501001,2.478162,0.223427
1.7980774182725852,2.478742,0.225043
1.8022220550494878,2.479315,0.226727
1.8063861615104715,2.479878,0.228478
1.810569719134946,2.480428,0.230293
1.8147726971739264,2.480963,0.232171
1.8189953992957013,2.481479,0.234111
1.823238122848896,2.481973,0.236109
1.8275006872846382,2.482443,0.238165
1.8317833944866726,2.482886,0.240276
1.836086384841601,2.4833,0.242441
1.8404096415941193,2.483683,0.244656
1.8447538078127026,2.484033,0.246922
1.8491183625669383,2.484348,0.249235
1.8535039540229177,2.484625,0.251594
1.8579104005107703,2.484863,0.253996
1.8623380189870666,2.485059,0.25644
1.8667869623993747,2.485214,0.258923
1.8712573851720204,2.485323,0.261445
1.8757494432239565,2.485387,0.264002
1.8802631200463384,2.485404,0.266592
1.8847989216428918,2.485372,0.269214
1.8893566597927174,2.48529,0.271865
1.8939368469787483,2.485157,0.274543
1.8985392947510753,2.484971,0.277246
1.9031641657910952,2.484732,0.279972
1.9078119825189532,2.484438,0.282719
1.912482556175237,2.484089,0.285484
1.9171764189447538,2.483684,0.288265
1.921893194269082,2.483222,0.291059
1.926633601186026,2.482701,0.293865
1.9313976341648464,2.482123,0.29668
1.9361852888463076,2.481486,0.299501
1.940996920635204,2.480789,0.302327
1.9458327131471718,2.480033,0.305154
1.9506928518764903,2.479217,0.307981
1.9555775149666852,2.478341,0.310805
1.9604867056024453,2.477404,0.313623
1.965420792812108,2.476408,0.316433
1.9703799727207376,2.475352,0.319232
1.9753644309268406,2.474236,0.322018
1.9803741745596233,2.473061,0.324789
1.9854093901536087,2.471827,0.327542
1.9904706687193945,2.470535,0.330274
1.9955580139564613,2.469184,0.332983
2.0006714275869357,2.467777,0.335666
2.0058113149281738,2.466314,0.338322
2.010977878833973,2.464796,0.340947
2.0161711275198453,2.463223,0.343539
2.0213916670250023,2.461598,0.346097
2.026639315464371,2.459921,0.348616
2.0319142812123143,2.458194,0.351096
2.03721698232281,2.456419,0.353534
2.042547638106214,2.454597,0.355927
2.0479064701911804,2.452729,0.358275
2.0532934917277634,2.450817,0.360573
2.058709141092627,2.448865,0.362821
2.064153434019559,2.446873,0.365017
2.0696270198369575,2.444843,0.367159
2.075129711823269,2.442779,0.369244
2.080661742758488,2.440682,0.371271
2.086223776179093,2.438554,0.37324
2.0918156297354615,2.436399,0.375147
2.0974375367910345,2.434219,0.376992
2.1030901790708714,2.432016,0.378774
2.1087733716858095,2.429793,0.38049
2.1144873629759755,2.427554,0.382141
2.1202326251526356,2.4253,0.383725
2.1260094156110054,2.423036,0.385242
2.1318179982444563,2.420763,0.38669
2.13765817919629,2.418486,0.38807
2.143530898880134,2.416207,0.38938
2.1494362063583807,2.413929,0.390621
2.1553741375587183,2.411656,0.391792
2.1613449673411065,2.40939,0.392893
2.167348973661275,2.407135,0.393925
2.1733871233872133,2.404895,0.394888
2.179458543803221,2.402672,0.395782
2.1855646895153993,2.40047,0.396608
2.1917049060813376,2.398291,0.397366
2.1978799625748273,2.39614,0.398058
2.204090148514299,2.394019,0.398684
2.210335291656107,2.391931,0.399247
2.216616405268989,2.38988,0.399746
2.222933322702646,2.387868,0.400183
2.2292865874599084,2.3859,0.400561
2.235676276293844,2.383976,0.400881
2.2421029466149234,2.382102,0.401145
2.2485666675613665,2.380278,0.401354
2.2550680188628216,2.378509,0.401511
2.2616070701756987,2.376796,0.401619
2.2681844117908136,2.375143,0.40168
2.2748001222328873,2.373551,0.401695
2.2814550503937268,2.372024,0.401669
2.288148768974256,2.370563,0.401604
2.29488214481977,2.36917,0.401502
2.301655527116166,2.367848,0.401366
2.308468749084519,2.366598,0.4012
2.3153229501552977,2.365423,0.401007
2.322217979155149,2.364323,0.40079
2.3291541975934686,2.363301,0.400551
2.336132244170093,2.362358,0.400296
2.34315222824918,2.361494,0.400026
2.3502148007874326,2.360712,0.399746
2.3573200771069693,2.360013,0.399459
2.3644687162471305,2.359396,0.399168
2.3716608487016324,2.358863,0.398878
2.3788971464755067,2.358414,0.398591
2.386177737483819,2.358051,0.398312
2.3935030296520283,2.357772,0.398043
2.400874003124859,2.357579,0.39779
2.4082902304266014,2.357472,0.397555
2.415752703821918,2.35745,0.397342
2.4232615683079852,2.357512,0.397155
2.4308174055654277,2.35766,0.396997
2.43842065294447,2.357892,0.396873
2.446071762893011,2.358208,0.396786
2.4537710333768783,2.358607,0.396739
2.4615192284367833,2.359088,0.396737
2.469316506040803,2.359651,0.396782
2.4771634924334465,2.360294,0.396879
2.48506066448149,2.361017,0.39703
2.493008500158047,2.361817,0.397241
2.5010073372191246,2.362694,0.397513
2.5090578255642497,2.363646,0.397851
2.5171604619944734,2.364672,0.398258
2.5253154462313927,2.36577,0.398738
2.533523913636017,2.366938,0.399293
2.541785923060014,2.368175,0.399928
2.550101989591561,2.369478,0.400646
2.558472972834347,2.370846,0.401449
2.5668989349439246,2.372276,0.402342
2.575381066629391,2.373767,0.403328
2.583919112856523,2.375316,0.40441
2.5925142950985265,2.37692,0.405591
2.6011668449826053,2.378578,0.406874
2.6098776793897915,2.380287,0.408263
2.618646885904815,2.382044,0.409762
2.6274757325452303,2.383846,0.411372
2.636364134638335,2.385691,0.413099
2.6453128830720156,2.387576,0.414944
2.6543229354582696,2.389497,0.416911
2.6633942258772785,2.391452,0.419003
2.672528262149495,2.393437,0.421225
2.681724978248052,2.395449,0.423578
2.690985751646563,2.397485,0.426066
2.700310524636448,2.399539,0.428693
2.7097003241962296,2.401611,0.431462
2.71915565995603,2.403693,0.434377
2.7286772084237594,2.405784,0.43744
2.738265861066958,2.407877,0.440655
2.7479219582633325,2.40997,0.444026
2.7576469562629993,2.412056,0.447556
2.767440841501358,2.414132,0.451248
2.7773047342410004,2.416191,0.455107
2.78723919355542,2.418229,0.459134
2.797245364384003,2.420238,0.463335
2.807323250493196,2.422214,0.467712
2.8174744067319146,2.42415,0.472269
2.8276992416500355,2.426039,0.477009
2.837998761707908,2.427873,0.481936
2.8483737816379437,2.429646,0.487052
2.858824732553613,2.431349,0.492362
2.8693528694294095,2.432974,0.497867
2.879958622378292,2.434511,0.503572
2.8906434863828023,2.435952,0.509478
2.901407922144935,2.437287,0.515589
2.9122528355418824,2.438505,0.521906
2.923179118682626,2.439595,0.528432
2.9341881282673086,2.440545,0.535168
2.9452799467823545,2.441343,0.542116
2.9564561535852927,2.441976,0.549276
2.9677177154065535,2.442431,0.55665
2.9790656281153907,2.442694,0.564235
2.990500427065356,2.442749,0.572033
3.0020235718953816,2.44258,0.58004
3.0136354165051724,2.442172,0.588255
3.0253381184450077,2.441508,0.596673
3.0371320637575057,2.440569,0.605292
3.049018316227324,2.439338,0.614104
3.0609977521955,2.437796,0.623103
3.073071913531617,2.435922,0.63228
3.085241943581329,2.433697,0.641626
3.097508516632803,2.431102,0.651129
3.109873020058774,2.428113,0.660776
3.1223368671949476,2.424712,0.670551
3.1349010223477647,2.420877,0.680437
3.1475669490265608,2.416587,0.690414
3.1603351396246846,2.411821,0.70046
3.1732078446946765,2.40656,0.71055
3.1861858450870195,2.400784,0.720658
3.1992701821231733,2.394474,0.730753
3.2124629338617474,2.387614,0.740803
3.2257644294356544,2.380188,0.750771
3.239177059790535,2.372183,0.760621
3.2527011654030913,2.363589,0.770311
3.2663392002115557,2.354396,0.779796
3.2800918202384066,2.3446,0.789031
3.293960729452848,2.3342,0.797967
3.3079477003410873,2.323199,0.806553
3.3220536771966924,2.311604,0.814735
3.3362807598800566,2.299428,0.82246
3.3506299352064084,2.286687,0.829672
3.365103082985232,2.273406,0.836315
3.3797020839831777,2.259614,0.842334
3.3944280293271554,2.245347,0.847674
3.4092831444747764,2.230647,0.852282
3.424268852719013,2.215562,0.856105
